0        1         2         3         4         5         6         7         8         9
123456789-123456789-123456789-123456789-123456789-123456789-123456789-123456789-123456789-123456789
$ SPECTRE ICRCCM experiment profile sonde, ozone sonde, raman, RASS
                                                 1                   0            0 3   99    0
    290.93 1  0.9422
    0        45    1    1    7    0
 0.000E+00 1.000E+02
 0.000E+00 6.000E-02 1.870E-01 3.650E-01 5.850E-01 8.430E-01 1.138E+00 1.466E+00
 1.825E+00 2.214E+00 2.633E+00 3.079E+00 3.552E+00 4.051E+00 4.575E+00 5.124E+00
 5.697E+00 6.293E+00 6.912E+00 7.554E+00 8.218E+00 8.904E+00 9.611E+00 1.034E+01
 1.109E+01 1.186E+01 1.264E+01 1.345E+01 1.428E+01 1.513E+01 1.599E+01 1.688E+01
 1.778E+01 1.870E+01 1.964E+01 2.060E+01 2.158E+01 2.257E+01 2.358E+01 2.461E+01
 2.565E+01 2.671E+01 2.779E+01 2.889E+01 3.000E+01
   45 SPECTRE ICRCCM experiment profile sonde, ozone sonde, raman, RASS
 0.000E+00 9.736E+02 1.778E+01     AB   CAAAAA6
 6.491E+00 3.500E+02 2.668E-02 3.089E-01 1.892E-01 1.836E+00
 6.000E-02 9.668E+02 1.817E+01     AB   CAAAAA6
 6.267E+00 3.500E+02 3.420E-02 3.089E-01 1.872E-01 1.830E+00
 1.870E-01 9.497E+02 1.890E+01     AB   CAAAAA6
 5.793E+00 3.500E+02 3.627E-02 3.088E-01 1.830E-01 1.818E+00
 3.650E-01 9.329E+02 1.842E+01     AB   CAAAAA6
 5.677E+00 3.500E+02 3.805E-02 3.088E-01 1.772E-01 1.801E+00
 5.850E-01 9.091E+02 1.684E+01     AB   CAAAAA6
 5.581E+00 3.500E+02 4.082E-02 3.087E-01 1.699E-01 1.779E+00
 8.430E-01 8.817E+02 1.508E+01     AB   CAAAAA6
 5.908E+00 3.500E+02 4.450E-02 3.087E-01 1.614E-01 1.754E+00
 1.138E+00 8.513E+02 1.231E+01     AB   CAAAAA6
 5.770E+00 3.500E+02 4.366E-02 3.086E-01 1.517E-01 1.726E+00
 1.466E+00 8.184E+02 9.530E+00     AB   CAAAAA6
 5.642E+00 3.500E+02 4.430E-02 3.085E-01 1.430E-01 1.700E+00
 1.825E+00 7.834E+02 6.540E+00     AB   CAAAAA6
 4.637E+00 3.500E+02 4.614E-02 3.084E-01 1.430E-01 1.700E+00
 2.214E+00 7.468E+02 4.270E+00     AB   CAAAAA6
 4.045E+00 3.500E+02 4.679E-02 3.083E-01 1.430E-01 1.700E+00
 2.633E+00 7.092E+02 2.480E+00     AB   CAAAAA6
 2.856E+00 3.500E+02 4.825E-02 3.081E-01 1.430E-01 1.700E+00
 3.079E+00 6.708E+02-1.260E+00     AB   CAAAAA6
 2.565E+00 3.500E+02 4.993E-02 3.080E-01 1.430E-01 1.700E+00
 3.552E+00 6.319E+02-3.040E+00     AB   CAAAAA6
 1.519E+00 3.500E+02 4.784E-02 3.079E-01 1.430E-01 1.700E+00
 4.051E+00 5.930E+02-6.320E+00     AB   CAAAAA6
 1.183E+00 3.500E+02 5.202E-02 3.077E-01 1.430E-01 1.700E+00
 4.575E+00 5.542E+02-1.058E+01     AB   CAAAAA6
 1.337E+00 3.500E+02 5.180E-02 3.076E-01 1.430E-01 1.700E+00
 5.124E+00 5.157E+02-1.336E+01     AB   CAAAAA6
 5.216E-01 3.500E+02 5.903E-02 3.074E-01 1.430E-01 1.700E+00
 5.697E+00 4.781E+02-1.629E+01     AB   CAAAAA6
 2.038E-01 3.500E+02 6.248E-02 3.072E-01 1.430E-01 1.700E+00
 6.293E+00 4.414E+02-1.926E+01     AB   CAAAAA6
 1.208E-01 3.500E+02 6.563E-02 3.071E-01 1.430E-01 1.700E+00
 6.912E+00 4.058E+02-2.343E+01     AB   CAAAAA6
 1.178E-01 3.500E+02 7.040E-02 3.069E-01 1.430E-01 1.700E+00
 7.554E+00 3.713E+02-2.879E+01     AB   CAAAAA6
 1.166E-01 3.500E+02 7.204E-02 3.067E-01 1.430E-01 1.700E+00
 8.218E+00 3.381E+02-3.069E+01     AB   CAAAAA6
 8.304E-02 3.500E+02 6.736E-02 3.065E-01 1.430E-01 1.700E+00
 8.904E+00 3.066E+02-3.598E+01     AB   CAAAAA6
 2.469E-02 3.500E+02 6.977E-02 3.063E-01 1.430E-01 1.700E+00
 9.611E+00 2.766E+02-4.014E+01     AB   CAAAAA6
 3.628E-02 3.500E+02 7.325E-02 3.061E-01 1.430E-01 1.700E+00
 1.034E+01 2.484E+02-4.461E+01     AB   CAAAAA6
 3.036E-02 3.500E+02 7.557E-02 3.060E-01 1.430E-01 1.700E+00
 1.109E+01 2.221E+02-4.499E+01     AB   CAAAAA6
 6.910E-03 3.500E+02 6.632E-02 3.060E-01 1.430E-01 1.700E+00
 1.186E+01 1.979E+02-4.607E+01     AB   CAAAAA6
 4.290E-03 3.500E+02 3.936E-02 3.060E-01 1.430E-01 1.700E+00
 1.264E+01 1.755E+02-5.072E+01     AB   CAAAAA6
 3.380E-03 3.500E+02 4.543E-02 3.060E-01 1.430E-01 1.700E+00
 1.345E+01 1.547E+02-5.696E+01     AB   CAAAAA6
 3.070E-03 3.500E+02 5.135E-02 3.060E-01 1.430E-01 1.700E+00
 1.428E+01 1.356E+02-5.970E+01     AB   CAAAAA6
 2.960E-03 3.500E+02 6.641E-02 3.060E-01 1.430E-01 1.700E+00
 1.513E+01 1.182E+02-6.643E+01     AB   CAAAAA6
 2.920E-03 3.500E+02 9.117E-02 3.060E-01 1.430E-01 1.700E+00
 1.599E+01 1.021E+02-6.720E+01     AB   CAAAAA6
 2.860E-03 3.500E+02 1.853E-01 3.060E-01 1.430E-01 1.700E+00
 1.688E+01 8.825E+01-6.340E+01     AB   CAAAAA6
 2.810E-03 3.500E+02 4.768E-01 3.060E-01 1.430E-01 1.700E+00
 1.778E+01 7.591E+01-6.495E+01     AB   CAAAAA6
 2.810E-03 3.500E+02 9.969E-01 3.060E-01 1.430E-01 1.700E+00
 1.870E+01 6.510E+01-6.608E+01     AB   CAAAAA6
 2.800E-03 3.500E+02 1.345E+00 3.060E-01 1.430E-01 1.700E+00
 1.964E+01 5.578E+01-6.129E+01     AB   CAAAAA6
 2.790E-03 3.500E+02 1.631E+00 3.060E-01 1.430E-01 1.700E+00
 2.060E+01 4.761E+01-5.928E+01     AB   CAAAAA6
 2.790E-03 3.500E+02 2.336E+00 3.060E-01 1.430E-01 1.700E+00
 2.158E+01 4.047E+01-5.990E+01     AB   CAAAAA6
 2.800E-03 3.500E+02 2.839E+00 3.060E-01 1.430E-01 1.700E+00
 2.257E+01 3.438E+01-5.547E+01     AB   CAAAAA6
 2.830E-03 3.500E+02 3.931E+00 3.060E-01 1.430E-01 1.700E+00
 2.358E+01 2.906E+01-5.580E+01     AB   CAAAAA6
 2.840E-03 3.500E+02 4.570E+00 3.060E-01 1.430E-01 1.700E+00
 2.461E+01 2.451E+01-5.413E+01     AB   CAAAAA6
 2.880E-03 3.500E+02 5.241E+00 3.060E-01 1.430E-01 1.700E+00
 2.565E+01 2.058E+01-5.641E+01     AB   CAAAAA6
 2.890E-03 3.500E+02 5.729E+00 3.060E-01 1.430E-01 1.700E+00
 2.671E+01 1.729E+01-5.124E+01     AB   CAAAAA6
 2.910E-03 3.500E+02 6.049E+00 3.060E-01 1.430E-01 1.700E+00
 2.779E+01 1.447E+01-4.944E+01     AB   CAAAAA6
 2.930E-03 3.500E+02 6.491E+00 3.060E-01 1.430E-01 1.700E+00
 2.889E+01 1.206E+01-4.980E+01     AB   CAAAAA6
 2.930E-03 3.500E+02 6.232E+00 3.060E-01 1.430E-01 1.700E+00
 3.000E+01 1.002E+01-5.051E+01     AB   CAAAAA6
 2.960E-03 3.500E+02 6.852E+00 3.060E-01 1.430E-01 1.700E+00
    31.000                         66   6A66666
     0.000 4.233E+02
    41.000                         66   6A66666
     0.000 4.233E+02
    51.000                         66   6A66666
     0.000 4.233E+02
    61.000                         66   6A66666
     0.000 4.233E+02
    71.000                         66   6A66666
     0.000 4.233E+02
    81.000                         66   6A66666
     0.000 4.233E+02
    91.000                         66   6A66666
     0.000 4.233E+02
%%%%%

